Frequency,psd
3400000.0,0.0033985733590735923
3400244.139693681,0.0033985733590735923
3400488.279387362,0.003362537594491677
3400732.419081043,0.003301375113071603
3400976.5587747237,0.003223828966746778
3401220.698468405,0.0031364055353637066
3401464.838162086,0.0030389774474840203
3401708.9778557667,0.0029315330081700897
3401953.117549448,0.0028181186730839303
3402197.257243129,0.002708253564643215
3402441.3969368096,0.0026142289995688683
3402685.536630491,0.0025375275051309765
3402929.676324172,0.002475852593840616
3403173.8160178526,0.0024342115957148303
3403417.955711534,0.0024151855184387228
3403662.0954052145,0.002414326805339845
3403906.2350988956,0.002425540212516536
3404150.374792577,0.002436583152050975
3404394.5144862575,0.0024359376090532514
3404638.6541799386,0.0024213504636062255
3404882.7938736198,0.0023961171223702005
3405126.9335673004,0.0023620954520054416
3405371.0732609816,0.0023158963904267305
3405615.2129546627,0.0022585719594102327
3405859.3526483434,0.002203220218145313
3406103.4923420246,0.0021667209629079587
3406347.6320357053,0.002158773227623395
3406591.7717293864,0.0021830895655886584
3406835.9114230676,0.0022469726397313927
3407080.0511167482,0.00234687480808482
3407324.1908104294,0.002465214689608919
3407568.33050411,0.0025871019182651944
3407812.4701977912,0.002704100428352202
3408056.6098914724,0.0028149762174648485
3408300.749585153,0.0029181992911814225
3408544.889278834,0.0029981237295023666
3408789.0289725154,0.003050992377140349
3409033.168666196,0.0030859467294963028
3409277.308359877,0.0031036960562896843
3409521.4480535584,0.0031029007571574396
3409765.587747239,0.003078587501423341
3410009.72744092,0.003034056170962557
3410253.867134601,0.002973083235121715
3410498.006828282,0.0028969548014609325
3410742.146521963,0.0028115339593587363
3410986.286215644,0.0027245511672219502
3411230.425909325,0.002654479307212826
3411474.565603006,0.0026125420734396665
3411718.705296687,0.002603921000325554
3411962.844990368,0.002642539321105225
3412206.984684049,0.002781674274025092
3412451.12437773,0.003061371648074185
3412695.264071411,0.003448314054923879
3412939.4037650917,0.003894028781001757
3413183.543458773,0.0043579378017256365
3413427.683152454,0.00479084871372451
3413671.8228461347,0.0051423235415511415
3413915.962539816,0.005385154079621424
3414160.1022334965,0.005520038178220776
3414404.2419271776,0.005565762734345281
3414648.381620859,0.005536429133443266
3414892.5213145395,0.005448896851275253
3415136.6610082206,0.0053335660106093585
3415380.800701902,0.0052277131864326976
3415624.9403955825,0.00516582208909358
3415869.0800892636,0.005155992710215634
3416113.219782945,0.00518838427546181
3416357.3594766255,0.005257798898818056
3416601.4991703066,0.005357737825710085
3416845.6388639873,0.00543998417911179
3417089.7785576684,0.005446814675592743
3417333.9182513496,0.0053685865956832335
3417578.0579450303,0.005213364811901128
3417822.1976387114,0.0050074694078781345
3418066.3373323926,0.004800916724148813
3418310.4770260733,0.0046326681039529916
3418554.6167197544,0.0045143822130852
3418798.7564134356,0.004451789139373941
3419042.8961071162,0.004448365607457122
3419287.0358007974,0.0045028354967598105
3419531.175494478,0.0046081297344477135
3419775.3151881592,0.004757089847350099
3420019.4548818404,0.004930459442057028
3420263.594575521,0.0050908818727592176
3420507.734269202,0.005211925521590333
3420751.873962883,0.005288789232258478
3420996.013656564,0.0053285450242399335
3421240.153350245,0.00534021531430845
3421484.293043926,0.005327113194627725
3421728.432737607,0.005330386183971497
3421972.572431288,0.005509379636495587
3422216.712124969,0.00601524584752422
3422460.85181865,0.00691932927290026
3422704.991512331,0.008253831832855218
3422949.131206012,0.010011254776216255
3423193.270899693,0.01216466435069144
3423437.4105933737,0.014614983568409623
3423681.550287055,0.017237620492161876
3423925.689980736,0.019902164461657323
3424169.8296744167,0.022420729349578977
3424413.969368098,0.024544962330505044
3424658.109061779,0.026028835021894015
3424902.2487554597,0.02671789607574976
3425146.388449141,0.026549005139488352
3425390.528142822,0.02553390766348662
3425634.6678365027,0.023765245053359696
3425878.807530184,0.021421958683112224
3426122.9472238645,0.018742367411548028
3426367.0869175456,0.01597225970550953
3426611.226611227,0.013262923182429442
3426855.3663049075,0.010753835349417429
3427099.5059985886,0.008594700086128115
3427343.6456922693,0.006872326445066385
3427587.7853859505,0.005641883204493714
3427831.9250796316,0.004914587646765195
3428076.0647733123,0.004706925803736606
3428320.2044669935,0.006397815552806885
3428564.3441606746,0.012482067803724822
3428808.4838543553,0.02366784136073452
3429052.6235480364,0.0389246137336606
3429296.7632417176,0.056849921987760565
3429540.9029353983,0.07562643454584378
3429785.0426290794,0.09324009668673897
3430029.18232276,0.10782747910090776
3430273.3220164413,0.11787775867960812
3430517.4617101224,0.12236261748065175
3430761.601403803,0.12081182213778974
3431005.7410974842,0.1133871636620827
3431249.880791165,0.10088529303536596
3431494.020484846,0.0846468300036197
3431738.1601785272,0.06642799890247775
3431982.2998722084,0.04820427414349701
3432226.439565889,0.03193586092784417
3432470.57925957,0.01934810858577035
3432714.718953251,0.011717619373225463
3432958.858646932,0.008354797068445108
3433202.998340613,0.006786959546776217
3433447.138034294,0.005711270028507132
3433691.277727975,0.005019189103662752
3433935.4174216557,0.00453678364686122
3434179.557115337,0.004187690533633381
3434423.696809018,0.0039750921090564995
3434667.8365026987,0.0038731899566379346
3434911.97619638,0.0038267591866556205
3435156.115890061,0.003777640458472925
3435400.2555837417,0.003713648351474058
3435644.395277423,0.0036479667247786285
3435888.534971104,0.003599044908396548
3436132.6746647847,0.0035774312593544466
3436376.814358466,0.0035757811007285367
3436620.9540521465,0.003622130888921188
3436865.0937458277,0.0037565073745352007
3437109.233439509,0.003976888500009684
3437353.3731331895,0.004263300055314445
3437597.5128268707,0.00458503803309665
3437841.6525205513,0.004929424836294716
3438085.7922142325,0.005287643021986671
3438329.9319079136,0.005619232611628
3438574.071601595,0.005885641490268906
3438818.2112952755,0.006065472470588862
3439062.3509889566,0.006152967633179379
3439306.4906826373,0.006147811778530632
3439550.6303763185,0.00605184371039294
3439794.7700699996,0.005879302421923166
3440038.9097636803,0.005654929160861438
3440283.0494573615,0.005405268726820733
3440527.189151042,0.005149527691135747
3440771.3288447233,0.0049145212912481695
3441015.4685384044,0.004726922871624267
3441259.608232085,0.004568514687447844
3441503.7479257663,0.00440876845238139
3441747.8876194474,0.004250095531866505
3441992.027313128,0.004113080741021319
3442236.1670068093,0.0040225784854443225
3442480.3067004904,0.00396941319861896
3442724.446394171,0.003933497429784688
3442968.5860878523,0.003919933132620318
3443212.725781533,0.003921945215650119
3443456.865475214,0.0039267212320027445
3443701.0051688952,0.003924559369612585
3443945.144862576,0.003909964075335476
3444189.284556257,0.003885096138200622
3444433.4242499378,0.003849797166672192
3444677.563943619,0.0038026459814727576
3444921.7036373,0.003750545573983577
3445165.8433309807,0.0037112811299921944
3445409.983024662,0.003689572329862195
3445654.122718343,0.003688029976939483
3445898.2624120237,0.0037433126153778307
3446142.402105705,0.00389279460250308
3446386.541799386,0.004181813655805361
3446630.6814930667,0.004653716117673123
3446874.821186748,0.005340748349823898
3447118.9608804286,0.006241517958268328
3447363.1005741097,0.007311183780699559
3447607.240267791,0.008516324410336618
3447851.3799614715,0.009832773759950925
3448095.5196551527,0.011222493156434643
3448339.659348834,0.012650103555272185
3448583.7990425145,0.014077218601557251
3448827.9387361957,0.0154333007092666
3449072.078429877,0.016688791212377763
3449316.2181235575,0.017819466247386256
3449560.3578172387,0.01878720246962043
3449804.4975109193,0.019565016480370262
3450048.6372046005,0.020144458230539786
3450292.7768982816,0.020564533563095705
3450536.9165919623,0.0208444437295863
3450781.0562856435,0.02100712600071386
3451025.195979324,0.02107383394108267
3451269.3356730053,0.02104136966534742
3451513.4753666865,0.020884339512538375
3451757.615060367,0.020616859525501713
3452001.7547540483,0.020294590517703964
3452245.8944477295,0.019942386142607404
3452490.03414141,0.019577830568028837
3452734.1738350913,0.01922108310858528
3452978.3135287724,0.01888450878130596
3453222.453222453,0.018555384459695068
3453466.5929161343,0.018282034617860626
3453710.732609815,0.018076821211821137
3453954.872303496,0.017922147799928678
3454199.0119971773,0.017833802167977947
3454443.151690858,0.017818444168142544
3454687.291384539,0.017871067761146386
3454931.4310782203,0.01796971263045205
3455175.570771901,0.01812187162909243
3455419.710465582,0.01829656531950724
3455663.8501592632,0.018443804162250055
3455907.989852944,0.018546196347450222
3456152.129546625,0.018608063147749404
3456396.2692403058,0.018593593807108733
3456640.408933987,0.018486987529655163
3456884.548627668,0.018313759574860894
3457128.6883213487,0.018087558053165004
3457372.82801503,0.017838634851021273
3457616.9677087106,0.01758428432968459
3457861.1074023917,0.017385536901346976
3458105.247096073,0.017256355354067415
3458349.3867897536,0.01718871344096559
3458593.5264834347,0.017212569793762122
3458837.666177116,0.01739146601094188
3459081.8058707966,0.01779116950022372
3459325.9455644777,0.018467660365264177
3459570.085258159,0.019434627853049252
3459814.2249518395,0.02064221562158436
3460058.3646455207,0.022078100548209162
3460302.5043392014,0.02364272793689698
3460546.6440328825,0.025156332348673066
3460790.7837265637,0.026451294505500184
3461034.9234202444,0.027426697405364547
3461279.0631139255,0.02798559686251076
3461523.2028076067,0.02804238783340096
3461767.3425012873,0.02760678535259778
3462011.4821949685,0.026712871007103095
3462255.6218886496,0.02541732169108865
3462499.7615823303,0.02381486761952134
3462743.9012760115,0.02204434748978798
3462988.040969692,0.02026620223792544
3463232.1806633733,0.018665682836664532
3463476.3203570545,0.017347122514227098
3463720.460050735,0.01633751793280816
3463964.5997444163,0.01564405919907383
3464208.739438097,0.015232382950363749
3464452.879131778,0.015051075995378027
3464697.0188254593,0.01498091853952574
3464941.15851914,0.014948649815510473
3465185.298212821,0.014947514911413828
3465429.4379065023,0.014959989053801331
3465673.577600183,0.014944826974179787
3465917.717293864,0.01487332367418212
3466161.8569875453,0.014733702617316075
3466405.996681226,0.014493440888186604
3466650.136374907,0.01414801709946406
3466894.276068588,0.013744693346662173
3467138.415762269,0.013341182042760774
3467382.55545595,0.01297795641508842
3467626.695149631,0.012706225770119817
3467870.834843312,0.012535796955769424
3468114.974536993,0.012442378778492552
3468359.1142306738,0.012450338986495418
3468603.253924355,0.012569929863216978
3468847.393618036,0.012798660474533097
3469091.5333117167,0.013128306403344725
3469335.673005398,0.01353257387373799
3469579.8126990786,0.013976914590513756
3469823.9523927597,0.014428114102049
3470068.092086441,0.014848244923291232
3470312.2317801216,0.015192160296698703
3470556.3714738027,0.015433832891368876
3470800.5111674834,0.016402579917749294
3471044.6508611646,0.019114627465966594
3471288.7905548457,0.023541265320089266
3471532.9302485264,0.029212380488154194
3471777.0699422075,0.035499077387766115
3472021.2096358887,0.041691749390703664
3472265.3493295694,0.0471097852721513
3472509.4890232505,0.0511457797456219
3472753.6287169317,0.05336770057272869
3472997.7684106124,0.05352800166010031
3473241.9081042935,0.05158586663753317
3473486.047797974,0.047720194982983494
3473730.1874916553,0.04228771918138176
3473974.3271853365,0.035831888261173936
3474218.466879017,0.029013252840946246
3474462.6065726983,0.022507885302261665
3474706.7462663795,0.016977503720621484
3474950.88596006,0.01301659214340578
3475195.0256537413,0.011043040559205075
3475439.1653474225,0.010406476853993873
3475683.305041103,0.010040009008156103
3475927.4447347843,0.00971793505459645
3476171.584428465,0.009450040909094709
3476415.724122146,0.009214589248092792
3476659.8638158273,0.009008559054092119
3476904.003509508,0.008805344046729946
3477148.143203189,0.008587833808615636
3477392.28289687,0.008335144337489414
3477636.422590551,0.008017266769249132
3477880.562284232,0.0076511203723564625
3478124.701977913,0.007269790108152568
3478368.841671594,0.006888557629696063
3478612.981365275,0.006524485541411662
3478857.121058956,0.006207727743804209
3479101.260752637,0.005965127416889621
3479345.400446318,0.005793418176197135
3479589.540139999,0.005665630036983255
3479833.67983368,0.0055600191280268385
3480077.8195273606,0.005461451804069595
3480321.9592210418,0.005356497436363988
3480566.098914723,0.00522998058610552
3480810.2386084036,0.005080030327129226
3481054.3783020847,0.0049207829587016305
3481298.517995766,0.004764864220030918
3481542.6576894466,0.0046194385001739335
3481786.7973831277,0.00450543685048771
3482030.937076809,0.004452582120002269
3482275.0767704896,0.004465021401324626
3482519.2164641707,0.004503552492623769
3482763.3561578514,0.004529928539892758
3483007.4958515326,0.004538845455329843
3483251.6355452137,0.004528208821456103
3483495.7752388944,0.0044895534319567
3483739.9149325755,0.004428138703136103
3483984.054626256,0.004381242209547553
3484228.1943199374,0.004379462275755419
3484472.3340136185,0.004421694739902754
3484716.473707299,0.004490363715025009
3484960.6134009804,0.004567045725264757
3485204.7530946615,0.004633103004488548
3485448.892788342,0.004672531661535806
3485693.0324820234,0.004686726683326287
3485937.1721757045,0.004687722094331104
3486181.311869385,0.004680652821886455
3486425.4515630663,0.004656446959918931
3486669.591256747,0.004604175107766562
3486913.730950428,0.0045285836922712985
3487157.8706441093,0.0044417586238636175
3487402.01033779,0.004356339505875162
3487646.150031471,0.004281454454166722
3487890.2897251523,0.0042303188597866415
3488134.429418833,0.004218285633119406
3488378.569112514,0.0042404768450688135
3488622.7088061953,0.004269217565939426
3488866.848499876,0.004284187340641538
3489110.988193557,0.004285479695592342
3489355.127887238,0.004281954136368726
3489599.267580919,0.0042807452759037745
3489843.4072746,0.004276226086066065
3490087.546968281,0.0042696075019527935
3490331.686661962,0.004266119182544992
3490575.8263556426,0.004263339004499739
3490819.966049324,0.004278005500721521
3491064.105743005,0.004323711069323388
3491308.2454366856,0.004396119555590494
3491552.385130367,0.004487469899920576
3491796.524824048,0.00459134000098646
3492040.6645177286,0.004702139415729389
3492284.8042114098,0.004810705263624898
3492528.943905091,0.004902738038437104
3492773.0835987716,0.0049668976409383
3493017.2232924527,0.004999999101712699
3493261.3629861334,0.004998150038413612
3493505.5026798146,0.004955233803056985
3493749.6423734957,0.004880792544457668
3493993.7820671764,0.004798212691386111
3494237.9217608576,0.0047397915390010315
3494482.0614545387,0.004736023309962756
3494726.2011482194,0.004785454614679663
3494970.3408419006,0.004873635723758124
3495214.4805355817,0.0049919439672463095
3495458.6202292624,0.005119751339355605
3495702.7599229435,0.005234602544283762
3495946.899616624,0.00532531849258383
3496191.0393103054,0.005382045099099231
3496435.1790039865,0.0053945050178727805
3496679.318697667,0.0053590760871954635
3496923.4583913484,0.005319031218871784
3497167.598085029,0.005319503024018096
3497411.73777871,0.005371450707928299
3497655.8774723914,0.005512480245140172
3497900.017166072,0.007777807307886742
3498144.156859753,0.013960985072654725
3498388.2965534343,0.023426579673368142
3498632.436247115,0.03517155640928196
3498876.575940796,0.04798500898218208
3499120.7156344773,0.06053076177138714
3499364.855328158,0.07145476915566497
3499608.995021839,0.07958364895445029
3499853.13471552,0.0840536374361895
3500097.274409201,0.08439006392575722
3500341.414102882,0.08054972937728876
3500585.553796563,0.07295585047025792
3500829.693490244,0.06266512393330458
3501073.8331839247,0.059426016300215864
3501317.972877606,0.07200697045282368
3501562.112571287,0.09901333797623656
3501806.252264968,0.1383939642803782
3502050.391958649,0.1868816679945372
3502294.53165233,0.23928970121297566
3502538.6713460106,0.28790797359311593
3502782.811039692,0.3254371110224218
3503026.950733373,0.3477695728710044
3503271.0904270536,0.35245512936207163
3503515.230120735,0.33891005991072937
3503759.3698144155,0.30853782872731056
3504003.5095080966,0.26463109077190505
3504247.6492017778,0.21194740694914616
3504491.7888954584,0.15618778982076365
3504735.9285891396,0.10339598284695242
3504980.0682828208,0.05934570465984709
3505224.2079765014,0.028844884779103575
3505468.3476701826,0.014972282356391975
3505712.4873638637,0.010602785871879072
3505956.6270575444,0.007801648661929339
3506200.7667512256,0.00687902037007837
3506444.9064449063,0.00707006991587994
3506689.0461385874,0.007497908283576882
3506933.1858322686,0.008243415342579663
3507177.3255259492,0.00958838297886444
3507421.4652196304,0.011886532502596941
3507665.604913311,0.015345242073767668
3507909.744606992,0.020683372405994105
3508153.8843006734,0.028515824543691615
3508398.0239943545,0.043359402354830226
3508642.163688035,0.546148766506017
3508886.3033817164,1.9603121019584733
3509130.443075397,4.1331278051316875
3509374.582769078,6.829324368146048
3509618.7224627594,9.756946054364853
3509862.86215644,12.598920270279686
3510107.001850121,15.047368376318522
3510351.141543802,16.837037585603365
3510595.281237483,17.774045917076982
3510839.420931164,17.757455031256523
3511083.560624845,16.789621896025217
3511327.700318526,14.975303988224814
3511571.840012207,12.510893472620202
3511815.979705888,9.66437499619292
3512060.119399569,6.745035521530811
3512304.25909325,4.068820542443168
3512548.398786931,1.924661460044739
3512792.538480612,0.5437242133958906
3513036.6781742927,0.07029057541098502
3513280.817867974,0.0731156022864753
3513524.957561655,0.07397304021564789
3513769.0972553357,0.07223709805571568
3514013.236949017,0.06790158606699069
3514257.3766426975,0.06116895145794894
3514501.5163363786,0.052544702096825435
3514745.65603006,0.042871201032665424
3514989.7957237405,0.033131417814499464
3515233.9354174216,0.024324275735647466
3515478.075111103,0.01759972757171302
3515722.2148047835,0.013887980252779014
3515966.3544984646,0.013563307729367508
3516210.4941921458,0.01663849757591304
3516454.6338858264,0.021474927379920766
3516698.7735795076,0.026232014541378273
3516942.9132731883,0.030366415299176552
3517187.0529668694,0.03351076507189368
3517431.1926605506,0.03735804673239809
3517675.3323542313,0.04344290252985063
3517919.4720479124,0.05111736684909769
3518163.6117415936,0.059558905777454124
3518407.7514352743,0.06785364952741273
3518651.8911289554,0.07510593961542812
3518896.0308226366,0.08053909391205426
3519140.1705163172,0.083571569002037
3519384.3102099984,0.08386582729926141
3519628.449903679,0.08137244934162394
3519872.58959736,0.07635592498539615
3520116.7292910414,0.06855954612455138
3520360.868984722,0.058018705113549604
3520605.008678403,0.04586913663958085
3520849.148372084,0.033436239565272224
3521093.288065765,0.02918101526879613
